# x_m,y_m,w_tr_right_m,w_tr_left_m,psi,kappa,s,velocity,acceleration,time
0.0009591768476901,0.3493626548711048,0.0011841016089353,0.3489126885973213,-0.0000210231912130,0.0000000000000044,0.0000000000000000,8.0000000000000000,0.0000000000000000,0.0000000000000000
0.1009152039743995,0.3493605534764333,0.1011622508097464,0.3488663419618161,-0.0000210231912134,-0.0001217778692948,0.0999560271487984,8.0000000000000000,0.0000000000000000,0.0124945033935998
0.2008712311011088,0.3493584520817618,0.2011404000105574,0.3488199953263109,0.0000033216728057,-0.0002435781427344,0.1999120542975967,8.0000000000000000,0.0000000000000000,0.0249890067871996
0.3008272582116303,0.3493612175188674,0.3011189302531109,0.3487777613275819,0.0000276710156826,-0.0001924872616016,0.2998680814463732,8.0000000000000000,0.0000000000000000,0.0374835101807967
0.4007832853221489,0.3493639838513506,0.4010974605657667,0.3487355280854772,0.0000418021966986,-0.0001413775780856,0.3998241085951716,8.0000000000000000,0.0000000000000000,0.0499780135743965
0.5007393123145993,0.3493695742818803,0.5010728971511834,0.3487023147268047,0.0000559340977493,-0.0001201079840711,0.4997801357439554,8.0000000000000000,0.0000000000000000,0.0624725169679944
0.6006953393070061,0.3493751657517312,0.6010483325980502,0.3486691046876190,0.0000658132305318,-0.0000988360528710,0.5997361628927537,8.0000000000000000,0.0000000000000000,0.0749670203615942
0.7006513661694924,0.3493827311399857,0.7010195820813310,0.3486462447462725,0.0000756926161174,-0.0000927725976306,0.6996921900415414,8.0000000000000000,0.0000000000000000,0.0874615237551927
0.8006073930319069,0.3493902976180999,0.8009908292534157,0.3486233905195253,0.0000843595911066,-0.0000867125091631,0.7996482171903397,8.0000000000000000,0.0000000000000000,0.0999560271487925
0.9005634197482381,0.3493995956391229,0.9009580138182733,0.3486103945196536,0.0000930274919575,-0.0000825610025808,0.8996042443391271,8.0000000000000000,0.0000000000000000,0.1124505305423909
1.0005194464644616,0.3494088949350965,1.0009251953917970,0.3485974057784823,0.0001008645307374,-0.0000784090214958,0.9995602714879254,8.0000000000000000,0.0000000000000000,0.1249450339359907
1.1004754730227764,0.3494197596746336,1.1008885906624002,0.3485935548793367,0.0001087024005202,-0.0000742585991588,1.0995162986367126,8.0000000000000000,0.0000000000000000,0.1374395373295891
1.2004314995809455,0.3494306258552488,1.2008519824475008,0.3485897123920838,0.0001157097198445,-0.0000701066494137,1.1994723257855109,8.0000000000000000,0.0000000000000000,0.1499340407231889
1.3003875259771791,0.3494428914423778,1.3008118643768263,0.3485942875024780,0.0001227175648244,-0.0000659562112491,1.2994283529342985,8.0000000000000000,0.0000000000000000,0.1624285441167873
1.4003435523732335,0.3494551585756696,1.4007717424282162,0.3485988719132262,0.0001288951615290,-0.0000618042456241,1.3993843800830967,8.0000000000000000,0.0000000000000000,0.1749230475103871
1.5002995786102953,0.3494686591388362,1.5007283871232897,0.3486111539452725,0.0001350729785314,-0.0000576538759316,1.4993404072318854,8.0000000000000000,0.0000000000000000,0.1874175509039857
1.6002556048471519,0.3494821612922058,1.6006850276497488,0.3486234459014993,0.0001404208663047,-0.0000535019789030,1.5992964343806837,8.0000000000000000,0.0000000000000000,0.1999120542975855
1.7002116309340982,0.3494967309625928,1.7006387113647499,0.3486427157581588,0.0001457686690429,-0.0000493516250614,1.6992524615294735,8.0000000000000000,0.0000000000000000,0.2124065576911842
1.8001676570208240,0.3495113022061832,1.8005923907222880,0.3486619958981735,0.0001502868510537,-0.0000451997438294,1.7992084886782720,8.0000000000000000,0.0000000000000000,0.2249010610847840
1.9001236829720345,0.3495267751156075,1.9005433898401045,0.3486875344828562,0.0001548046426856,-0.0000410493094290,1.8991645158270636,8.0000000000000000,0.0000000000000000,0.2373955644783829
2.0000797089230202,0.3495422495201937,2.0004943845134893,0.3487130834454283,0.0001584931028291,-0.0000368973474682,1.9991205429758621,8.0000000000000000,0.0000000000000000,0.2498900678719828
2.1000357347573702,0.3495584597972532,2.1004429755280474,0.3487441716671099,0.0001621808672161,-0.0000327470153277,2.0990765701246552,8.0000000000000000,0.0000000000000000,0.2623845712655819
2.1999917605915051,0.3495746714303845,2.2003915621131238,0.3487752700965840,0.0001650396259354,-0.0000285951559567,2.1990325972734537,8.0000000000000000,0.0000000000000000,0.2748790746591817
2.2999477863315407,0.3495914532077645,2.3003380216265326,0.3488111888567341,0.0001678973835864,-0.0000244448468468,2.2989886244222490,8.0000000000000000,0.0000000000000000,0.2873735780527811
2.3999038120713849,0.3496082361410908,2.4002844768273826,0.3488471173899252,0.0001699264454855,-0.0000202930103853,2.3989446515710471,8.0000000000000000,0.0000000000000000,0.2998680814463809
2.4998598377424965,0.3496254235523975,2.5002290815345085,0.3488871475840750,0.0001719542009804,-0.0000161426256982,2.4989006787198442,8.0000000000000000,0.0000000000000000,0.3123625848399805
2.5998158634134558,0.3496426118584844,2.6001736821479993,0.3489271868518591,0.0001731535509506,-0.0000119907134384,2.5988567058686427,8.0000000000000000,0.0000000000000000,0.3248570882335803
2.6997718890430527,0.3496600390343039,2.7001167088127156,0.3489706093870084,0.0001743512891363,-0.0000078404222576,2.6988127330174398,8.0000000000000000,0.0000000000000000,0.3373515916271800
2.7997279146725509,0.3496774667826885,2.8000597317047147,0.3490140400317684,0.0001747209458707,-0.0000036886038930,2.7987687601662383,8.0000000000000000,0.0000000000000000,0.3498460950207798
2.8996839402892376,0.3496949678573441,2.9000014571632282,0.3490601358003410,0.0001750886855181,0.0000004617666082,2.8987247873150368,8.0000000000000000,0.0000000000000000,0.3623405984143796
2.9996399659058910,0.3497124691213159,2.9999431792719831,0.3491062384498233,0.0001746286331594,0.0000046136647130,2.9986808144638353,8.0000000000000000,0.0000000000000000,0.3748351018079794
3.0995959915386377,0.3497298782259607,3.0998838804019986,0.3491542883583058,0.0001741663583275,0.0000087639324134,3.0986368416126333,8.0000000000000000,0.0000000000000000,0.3873296052015792
3.1995520171714293,0.3497472870756226,3.1998245787072097,0.3492023436543904,0.0001728766174269,0.0000129157272287,3.1985928687614318,8.0000000000000000,0.0000000000000000,0.3998241085951790
3.2995080428487493,0.3497644383455183,3.2997645324334788,0.3492516285933326,0.0001715843487644,0.0000170660639832,3.2985488959102289,8.0000000000000000,0.0000000000000000,0.4123186119887786
3.3994640685262003,0.3497815888551011,3.3997044839619308,0.3493009171618821,0.0001694649055173,0.0000212179283301,3.3985049230590270,8.0000000000000000,0.0000000000000000,0.4248131153823784
3.4994200942753229,0.3497983164227494,3.4996439672266058,0.3493507180322168,0.0001673426291240,0.0000253681920553,3.4984609502078228,8.0000000000000000,0.0000000000000000,0.4373076187759778
3.5993761200246706,0.3498150426637047,3.5995834490224214,0.3494005205095503,0.0001643934981297,0.0000295199829443,3.5984169773566217,8.0000000000000000,0.0000000000000000,0.4498021221695777
3.6993321458707151,0.3498311806645256,3.6995227387850234,0.3494501182021180,0.0001614412286908,0.0000336703067922,3.6983730045054144,8.0000000000000000,0.0000000000000000,0.4622966255631768
3.7992881717170803,0.3498473167112404,3.7994620279097000,0.3494997152144004,0.0001576623979300,0.0000378221582238,3.7983290316542124,8.0000000000000000,0.0000000000000000,0.4747911289567766
3.8992441976822314,0.3498626992782504,3.8994014011218256,0.3495483906292332,0.0001538801233423,0.0000419723296555,3.8982850588030007,8.0000000000000000,0.0000000000000000,0.4872856323503751
3.9992002236477995,0.3498780792026919,3.9993407746288594,0.3495970628118827,0.0001492716232849,0.0000461240279267,3.9982410859517996,8.0000000000000000,0.0000000000000000,0.4997801357439750
4.0991562497504797,0.3498925404749985,4.0992805082401089,0.3496440968280672,0.0001446593741670,0.0000502747130158,4.0981971131005821,8.0000000000000000,0.0000000000000000,0.5122746391375728
4.1991122758536665,0.3499069983552542,4.1992202431810153,0.3496911247954506,0.0001392211021267,0.0000544269274390,4.1981531402493806,8.0000000000000000,0.0000000000000000,0.5247691425311726
4.2990683021077167,0.3499203724514359,4.2991606140719281,0.3497357983548891,0.0001337787752935,0.0000585754556576,4.2981091673981568,8.0000000000000000,0.0000000000000000,0.5372636459247696
4.3990243283623522,0.3499337423449648,4.3991009874289011,0.3497804627845021,0.0001275111624548,0.0000627255026407,4.3980651945469562,8.0000000000000000,0.0000000000000000,0.5497581493183695
4.4989803547761875,0.3499458634697986,4.4990422726054362,0.3498220565746135,0.0001212391912038,0.0000652921382538,4.4980212216957227,8.0000000000000000,0.0000000000000000,0.5622526527119653
4.5989363811906703,0.3499579795206803,4.5989835614868433,0.3498636378882130,0.0001144584769670,0.0000678535797458,4.5979772488445221,8.0000000000000000,0.0000000000000000,0.5747471561055653
4.6988924077596854,0.3499687450990103,4.6989261653902954,0.3499012413801643,0.0001076744426853,0.0000591161545208,4.6979332759932806,8.0000000000000000,0.0000000000000000,0.5872416594991601
4.7988484343293578,0.3499795049396713,4.7988687748808019,0.3499388279717914,0.0001026404450746,0.0000503295745690,4.7978893031420782,8.0000000000000000,0.0000000000000000,0.5997361628927598
4.8988044610017134,0.3499892641612029,4.8988146892767030,0.3499688091027184,0.0000976129540413,0.0001906849414840,4.8978453302908553,8.0000000000000000,0.0000000000000000,0.6122306662863569
4.9987604876745229,0.3499990189458088,4.9987606183271511,0.3499987565096608,0.0000645202266989,0.0003317260657898,4.9978013574396529,8.0000000000000000,0.0000000000000000,0.6247251696799566
5.0987165147728799,0.3500021625322500,5.0987169171858122,0.3500013000459835,0.0000312969147656,0.0015262315935667,5.0977573845874424,8.0000000000000000,-5.9963017442164190,0.6372196730734303
5.1986725418732016,0.3500052755763317,5.1986732639508295,0.3500037169821276,-0.0002405918665034,0.0027258516454950,5.1977134117362409,7.9247250425567088,-8.1693388960302116,0.6497732370290628
5.2986285558328428,0.3499540653202268,5.2986682486854724,0.3498741777639255,-0.0005136336872025,0.0054057753697428,5.2976694388141032,7.8210049022057122,-8.0179068848935255,0.6624695080090069
5.3985845697293353,0.3499025940153180,5.3986634190935865,0.3497440044348327,-0.0013212715253565,0.0080935307810572,5.3976254659628999,7.7178521263237414,-7.8378912122876878,0.6753348078139124
5.4985403699941724,0.3496899273788860,5.4988217951080722,0.3491227307711505,-0.0021316280469139,0.0114159930229028,5.4975814924629676,7.6156649427584284,-7.6675440257085965,0.6883723941745282
5.5984961691927486,0.3494764561975644,5.5989809857009671,0.3484990059678429,-0.0036034661350062,0.0147427315492078,5.5975375196117660,7.5143541334410813,-7.2739706657621044,0.7015853354993724
5.6984509087863433,0.3489695534043039,5.6994653279291523,0.3469134068321688,-0.0050788777640050,0.0222868377139924,5.6974935445310528,7.4169645850917281,-6.8988229271711061,0.7149741093650351
5.7984056428949806,0.3484611316866508,5.7999513532778000,0.3453228286338220,-0.0080588735965188,0.0298547682154233,5.7974495716798513,7.3234012448382728,-6.4415676278405574,0.7285363273319515
5.8983555788655684,0.3473585120600323,5.9005982607772003,0.3427805599947885,-0.0110472055258581,0.0393247425900470,5.8974055893604573,7.2349470556114142,-6.0037541763212792,0.7422681072863462
5.9983054891151344,0.3462527071608766,6.0012460307055804,0.3402331896995915,-0.0159203633000851,0.0488079599121877,5.9973616165092558,7.1515198431252438,-5.6433457080305161,0.7561639481279326
6.0982399149928517,0.3441760119296746,6.1017406023601808,0.3369718899736840,-0.0208045037823632,0.0571147365560005,6.0973176175226627,7.0722035836076085,-5.2973262885732577,0.7702187772348519
6.1981742550659451,0.3420939366364492,6.2022343250865477,0.3337066341010412,-0.0273382861229452,0.0654180099890550,6.1972736446714611,6.9969324812634106,-5.0906648937006622,0.7844280402184372
6.2980729897806373,0.3387115567415184,6.3023501127360486,0.3298247898019951,-0.0338823493823215,0.0711176312997693,6.2972296234388674,6.9238269304847231,-4.8931663178772480,0.7987887479658967
6.3979715209707351,0.3353217441460424,6.4024637400623083,0.3259394210078984,-0.0415555544520911,0.0768045853215227,6.3971856505876659,6.8528225157725231,-4.7542545459197765,0.8132996822157268
6.4978065666583911,0.3304067362290802,6.5021737410739346,0.3212241440543762,-0.0492365065449623,0.0814102338860026,6.4971416091408214,6.7831220165932908,-4.6220415158738719,0.8279603400551458
6.5976412387457710,0.3254827528236904,6.6018813668203959,0.3165039832469789,-0.0578304359647024,0.0860110593720739,6.5970976362896190,6.7146662223453459,-4.4988184209604789,0.8427710668763659
6.6973770439494471,0.3188526052604185,6.7012391404416354,0.3106111344924207,-0.0664311465151983,0.0905503338292384,6.6970535750643432,6.6473585159984614,-4.3814907378103083,0.8577322633614898
6.7971122511312885,0.3122121375234093,6.8005947978921082,0.3047111924325094,-0.0759325312155366,0.0950905148777299,6.7970096022131408,6.5811444617130022,-4.2652591292481317,0.8728444838927490
6.8967040432847115,0.3036880454355663,6.8996505595380473,0.2972872690233646,-0.0854408761512246,0.0997376798588657,6.8969655185475558,6.5160407193786218,-4.1545657661912534,0.8881082088767588
6.9962949451499155,0.2951522602316913,6.9987044594983274,0.2898538850809988,-0.0958712846346290,0.1043866940030886,6.9969215456963543,6.4519949534672225,-4.0436013942193325,0.9035239633781285
7.0956872356157143,0.2845526086771867,7.0974882593432964,0.2805565082485305,-0.1063090203115014,0.1091722738095320,7.0968774360536244,6.3890433810037885,-3.9378868043969013,0.9190921577489753
7.1950782626970264,0.2739398286882669,7.1962703410578026,0.2712472743942153,-0.1176961232303901,0.1139598264674647,7.1968334632024229,6.3271355512340604,-3.8308172232489923,0.9348132368060483
7.2942033709304077,0.2610795430045599,7.2947874355243254,0.2597483492224030,-0.1290909443263957,0.1189091169905905,7.2967893236116357,6.2663242032669650,-3.7287210733573719,0.9506874861954567
7.3933267486011083,0.2482046308680431,7.3933028054908903,0.2482351738456646,-0.1414674692558355,0.1238604668679727,7.3967453507604342,6.2065612645628292,-3.6243982089009301,0.9667152172937029
7.4921031575938937,0.2328948894373602,7.4915299757226430,0.2342234059502833,-0.1538521197928475,0.1289949468205154,7.4967011767846552,6.1479137353372932,-3.5247663848017829,0.9828965323273290
7.5908772602319745,0.2175689633180921,7.5897552302459852,0.2201950295222579,-0.1672550881246799,0.1341315320766215,7.5966572039334537,6.0903366087798556,-3.4223285147858200,0.9992315515234100
7.6892078009860443,0.1996172488457369,7.6876379055792947,0.2033780543549104,-0.1806665976663939,0.1394656760804462,7.6966129906468037,6.0339072689319817,-3.3242769975760114,1.0157201322087754
7.7875353353013894,0.1816477369203691,7.7855182589291774,0.1865421782144607,-0.1951359244014328,0.1448019019882916,7.7965690177956022,5.9785846056094698,-3.2227882225600100,1.0323621459046413
7.8853052351591106,0.1608583876880313,7.8829686439292628,0.1666479189978245,-0.2096142020696523,0.1503513342292071,7.8965247598002160,5.9244579085525713,-3.1253431834363057,1.0491571362418912
7.9830712878214953,0.1400495840177802,7.9804160625197094,0.1467325595838387,-0.2251929256217695,0.1559028035529989,7.9964807869490135,5.8714910997143965,-3.0246828768604686,1.0661046539157544
8.0801460460285721,0.1162245643359578,8.0773116968580272,0.1235106691701667,-0.2407809994549366,0.1616580833764810,8.0964364783517624,5.8197714042360875,-2.9276771152422412,1.0832038664890713
8.1772159585729600,0.0923784023387755,8.1742034634373297,0.1002656014638624,-0.2575102708873109,0.1674151443435951,8.1963925055005582,5.7692686929225223,-2.8260822984197942,1.1004539624954359
8.2734393273727278,0.0653193522217197,8.2703878101799351,0.0734859962296565,-0.2742492391693834,0.1734109162105966,8.2963481401412000,5.7200957642128234,-2.7276757171760009,1.1178536428717625
8.3696566789617695,0.0382374649802052,8.3665671286009005,0.0466812675954389,-0.2921771353194007,0.1794084772822716,8.3963041672899994,5.6722306278647698,-2.6276741239067980,1.1354015999278926
8.4648481213671722,0.0077463927794270,8.4618476434219794,0.0161375313211900,-0.3101150745997949,0.1855459769218391,8.4962597383762279,5.6257354150652992,-2.5303674565645182,1.1530960363789169
8.5600321843516642,-0.0227692018753660,8.5571216930995675,-0.0144330998396695,-0.3292699281119251,0.1916842738924677,8.5962157655250273,5.5805956674848192,-2.4251969240351916,1.1709352428796858
8.6539858950718074,-0.0568837519881070,8.6512765932177835,-0.0489357152616574,-0.3484349708186327,0.1981459521583462,8.6961712670618567,5.5369869472679190,-2.3220189970835103,1.1889167600854480
8.7479306691022334,-0.0910244431900124,8.7454233643694828,-0.0834668907345723,-0.3688815883107697,0.2046093897800735,8.7961272942106561,5.4949089952782924,-2.2222879014636288,1.2070380381811385
8.8404110913568914,-0.1289514555137768,8.8381901710076090,-0.1220909996127311,-0.3893387308248886,0.2110171966883781,8.8960827180965403,5.4543345522635258,-2.1240207026548332,1.2252959979117584
8.9328807979764449,-0.1669061748654601,8.9309468795283085,-0.1607450592046510,-0.4110663422940144,0.2174236011698944,8.9960387452453379,5.4152698977961755,-1.9531344943442659,1.2436878405235197
9.0236262278718673,-0.2088148550765164,9.0220474753277706,-0.2036664764815197,-0.4328041807609786,0.2262635001844089,9.0959940878936312,5.3790980294782358,-1.7805687124076586,1.2622077470751081
9.1143589770636435,-0.2507526135701895,9.1131358917163947,-0.2466192768289860,-0.4562989885509641,0.2351199405325742,9.1959501150424305,5.3459085721345065,-1.4996096631531015,1.2808475541841811
9.2030355799117043,-0.2968775207527051,9.2021218403179112,-0.2937363427592666,-0.4798073024197405,0.2475477390041854,9.2959053397946576,5.3177956730001421,-1.2104719452802879,1.2995943653211897
9.2916970254407065,-0.3430332943902347,9.2910922901320205,-0.3408841064568898,-0.5057865669605590,0.2599970647399278,9.3958613669434552,5.2949941347019873,-1.2028678941660769,1.3184312647529026
9.3778582874381300,-0.3937013201043499,9.3773208606332741,-0.3917272481084941,-0.5317835955290837,0.2572566185367049,9.4958164163344438,5.2722383716011967,-1.3411704262944850,1.3373491885009354
9.4640011851787929,-0.4444024890476089,9.4635292915827431,-0.4425975329152729,-0.5572150145192167,0.2544043468378163,9.5957724434832414,5.2467495949302103,-0.7708871857780346,1.3563540637735054
9.5474750369962642,-0.4993855510335619,9.5471964124974988,-0.4983420850300661,-0.5826418540182257,0.2823495178757971,9.6957275386139870,5.2320429191589488,0.0000000000000000,1.3754316616926074
9.6309293550477424,-0.5543999506207070,9.6308449344982741,-0.5541223101155476,-0.6136598235128554,0.3105105281330869,9.7956835657627863,5.2320429191589488,0.0000000000000000,1.3945362502239389
9.7108335190641757,-0.6144520735841892,9.7102957298421249,-0.6120570508243465,-0.6447162252684815,0.2798465223737119,9.8956382199795172,5.2320429191589488,0.8394048682399594,1.4136405763468596
9.7907120292896632,-0.6745405996730173,9.7897161919663329,-0.6700073602923713,-0.6696041324783577,0.2487568979693040,9.9955942471283148,5.2480549024870680,1.6487175510205592,1.4327159759948180
9.8675296925005469,-0.7384943371325905,9.8663672974747296,-0.7328824237468160,-0.6944455119355153,0.2495144680648575,10.0955494066561187,5.2793632107646893,1.5456136109468981,1.4517054677111167
9.9443255159419479,-0.8024756536658477,9.9429986430572566,-0.7957926263282161,-0.7194848658821851,0.2505117824338710,10.1955054338049180,5.3085461948908739,1.4404119560310575,1.4705866317481662
