# x_m,y_m,w_tr_right_m,w_tr_left_m,psi,kappa,s,velocity,acceleration,time
-0.0021704933412359,0.5298633830298470,0.0238047109492860,0.4779961562186302,0.0014594752099208,-0.0000003437359369,0.0000000000000000,8.0000000000000000,0.0000000000000000,0.0000000000000000
0.0978239909411171,0.5300093226044064,0.1237818846470007,0.4781787076363360,0.0014595095816552,-0.0002181319592651,0.0999945907799675,8.0000000000000000,0.0000000000000000,0.0124993238474959
0.1978184752131381,0.5301552690529330,0.2237590589473999,0.4783612647194685,0.0015030992419263,-0.0004360971678852,0.1999891815596357,8.0000000000000000,0.0000000000000000,0.0249986476949545
0.2978129463925874,0.5303099260781243,0.3237369969595923,0.4785510009369915,0.0015467242973410,-0.0004393420212381,0.2999837723396032,8.0000000000000000,0.0000000000000000,0.0374979715424504
0.3978074175498397,0.5304645970559190,0.4237149362272145,0.4787407485874628,0.0015909628931783,-0.0004425919919438,0.3999783631189545,8.0000000000000000,0.0000000000000000,0.0499972953898693
0.4978018746542807,0.5306281013104863,0.5236936702968785,0.4789377343420906,0.0016352379075746,-0.0004458368531186,0.4999729538989220,8.0000000000000000,0.0000000000000000,0.0624966192373653
0.5977963317230450,0.5307916268009626,0.6236724063247350,0.4791347373992754,0.0016801254405423,-0.0004490868315818,0.5999675446779386,8.0000000000000000,0.0000000000000000,0.0749959430847423
0.6977907737459250,0.5309641080638386,0.7236519681767122,0.4793390374251573,0.0017250504154716,-0.0004523316780910,0.6999621354579060,8.0000000000000000,0.0000000000000000,0.0874952669322382
0.7977852157179511,0.5311366180505960,0.8236315327396083,0.4795433607253121,0.0017705868826368,-0.0004555816418785,0.7999567262365698,8.0000000000000000,0.0000000000000000,0.0999945907795712
0.8977796416177656,0.5313182060999958,0.9236119540770871,0.4797550397621742,0.0018161618151640,-0.0004588264769585,0.8999513170165373,8.0000000000000000,0.0000000000000000,0.1124939146270672
0.9977740674497664,0.5314998305659152,1.0235923789281307,0.4799667481471136,0.0018623472142409,-0.0004620764292402,0.9999459077948295,8.0000000000000000,0.0000000000000000,0.1249932384743537
1.0977684761495532,0.5316906551794585,1.1235736914344558,0.4801858709321107,0.0019085721020651,-0.0004653212440497,1.0999404985747969,8.0000000000000000,0.0000000000000000,0.1374925623218496
1.1977628847626984,0.5318815241068221,1.2235550083068578,0.4804050292411038,0.0019554064289999,-0.0004685711763974,1.1999350893526990,8.0000000000000000,0.0000000000000000,0.1499918861690874
1.2977572751495343,0.5320817150611719,1.3235372436441382,0.4806316605155393,0.0020022812681344,-0.0004718160400206,1.2999296801326663,8.0000000000000000,0.0000000000000000,0.1624912100165833
1.3977516654289439,0.5322819584313184,1.4235194842498333,0.4808583335919814,0.0020497645326893,-0.0004750660205324,1.3999242709101587,8.0000000000000000,0.0000000000000000,0.1749905338637698
1.4977460363534332,0.5324916455049366,1.5235026740607600,0.4810925380955627,0.0020972893327664,-0.0004783108118574,1.4999188616901262,8.0000000000000000,0.0000000000000000,0.1874898577112658
1.5977404071476655,0.5327013933009772,1.6234858700921981,0.4813267907812894,0.0021454215204826,-0.0004815607212055,1.5999134524671896,8.0000000000000000,0.0000000000000000,0.1999891815583987
1.6977347574234440,0.5329207062692726,1.7234700459966503,0.4815686332583941,0.0021935962672703,-0.0004848056238931,1.6999080432471572,8.0000000000000000,0.0000000000000000,0.2124885054058946
1.7977291075439983,0.5331400884713103,1.8234542291234734,0.4818105303998120,0.0022423774004190,-0.0004880556424354,1.7999026340237714,8.0000000000000000,0.0000000000000000,0.2249878292529714
1.8977234359472139,0.5333691571139761,1.9234394227267249,0.4820600755840038,0.0022912021157551,-0.0004913003484775,1.8998972248037391,8.0000000000000000,0.0000000000000000,0.2374871531004674
1.9977177641680079,0.5335983037063112,2.0234246246037948,0.4823096820169213,0.0023406321550092,-0.0004945501734752,1.9998918155798839,8.0000000000000000,0.0000000000000000,0.2499864769474855
2.0977120694368416,0.5338372577949977,2.1234108674788090,0.4825669946615306,0.0023901068001868,-0.0004977950928449,2.0998864063598517,8.0000000000000000,0.0000000000000000,0.2624858007949815
2.1977063744937326,0.5340762987540109,2.2233971197287818,0.4828243752412825,0.0024401857882097,-0.0005010451280415,2.1998809971355064,8.0000000000000000,0.0000000000000000,0.2749851246419383
2.2977006553278554,0.5343252680687136,2.3233844434369875,0.4830895200863131,0.0024903104052663,-0.0005042898789125,2.2998755879154733,8.0000000000000000,0.0000000000000000,0.2874844484894342
2.3976949359180959,0.5345743333790054,2.4233717776708041,0.4833547396550655,0.0025410383083599,-0.0005075397473879,2.3998701786906174,8.0000000000000000,0.0000000000000000,0.2999837723363272
2.4976891909782020,0.5348334476927853,2.5233602137458897,0.4836277814471976,0.0025918128639530,-0.0005107845403742,2.4998647694705847,8.0000000000000000,0.0000000000000000,0.3124830961838231
2.5976834457599676,0.5350926673320919,2.6233486615467649,0.4839009048537499,0.0026431896905401,-0.0005140344511069,2.5998593602451963,8.0000000000000000,0.0000000000000000,0.3249824200306495
2.6976776736672456,0.5353620564194894,2.7233382415025331,0.4841819083406091,0.0026946141931208,-0.0005172792901490,2.6998539510251636,8.0000000000000000,0.0000000000000000,0.3374817438781454
2.7976719012591102,0.5356315603670319,2.8233278344337434,0.4844630004346956,0.0027466399524119,-0.0005205292462901,2.7998485417992218,8.0000000000000000,0.0000000000000000,0.3499810677249027
2.8976661005947411,0.5359113540042152,2.9233185897634675,0.4847520303636926,0.0027987144110613,-0.0005237740678031,2.8998431325791900,8.0000000000000000,0.0000000000000000,0.3624803915723988
2.9976602995751662,0.5361912722408156,3.0233093593676754,0.4850411559948218,0.0028513890995507,-0.0005270240049617,2.9998377233526714,8.0000000000000000,0.0000000000000000,0.3749797154190839
3.0976544688798189,0.5364816002030280,3.1233013215413892,0.4853382771122824,0.0029041135104726,-0.0005302686969459,3.0998323141326392,8.0000000000000000,0.0000000000000000,0.3874790392665799
3.1976486377866573,0.5367720627085250,3.2232932993379246,0.4856355011290209,0.0029574371022560,-0.0005335185083150,3.1998269049055228,8.0000000000000000,0.0000000000000000,0.3999783631131903
3.2976427755600031,0.5370730547655952,3.3232864997990479,0.4859407781917141,0.0030108114402938,-0.0005367633727961,3.2998214956854910,8.0000000000000000,0.0000000000000000,0.4124776869606864
3.3976369128900017,0.5373741915145615,3.4232797172807121,0.4862461654527858,0.0030647839698688,-0.0005400133526274,3.3998160864577534,8.0000000000000000,0.0000000000000000,0.4249770108072192
3.4976310175901686,0.5376859774429733,3.5232741874573397,0.4865596632047713,0.0031188082687130,-0.0005432580761415,3.4998106772377207,8.0000000000000000,0.0000000000000000,0.4374763346547151
3.5976251217984299,0.5379979184164747,3.6232686761013788,0.4868732785565340,0.0031734297078876,-0.0005465079188273,3.5998052680093395,8.0000000000000000,0.0000000000000000,0.4499756585011674
3.6976191918415400,0.5383206279868193,3.7232644473923697,0.4871950617554223,0.0032281039401107,-0.0005497527791084,3.6997998587893073,8.0000000000000000,0.0000000000000000,0.4624749823486634
3.7976132613410480,0.5386435031601812,3.8232602386469159,0.4875169700574686,0.0032833743162368,-0.0005530027534904,3.7997944495602587,8.0000000000000000,0.0000000000000000,0.4749743061950323
3.8976072951006726,0.5389772661482545,3.9232573424348911,0.4878471034512306,0.0033386985081767,-0.0005562474081961,3.8997890403402260,8.0000000000000000,0.0000000000000000,0.4874736300425282
3.9976013282617573,0.5393112055018031,4.0232544677315030,0.4881773695539364,0.0033946177801414,-0.0005594971835953,3.9997836311104868,8.0000000000000000,0.0000000000000000,0.4999729538888109
4.0975953240684602,0.5396561516749026,4.1232529353638157,0.4885159179091286,0.0034505918920036,-0.0005627420602700,4.0997782218904550,8.0000000000000000,0.0000000000000000,0.5124722777363069
4.1975893192183298,0.5400012851807288,4.2232514260991652,0.4888546066807842,0.0035071601041983,-0.0005659920498074,4.1997728126600009,8.0000000000000000,0.0000000000000000,0.5249716015825001
4.2975832753591012,0.5403575443147418,4.3232512889161026,0.4892016347393912,0.0035637841788081,-0.0005692366669413,4.2997674034399678,8.0000000000000000,0.0000000000000000,0.5374709254299960
4.3975772307812822,0.5407140019532124,4.4232511764791251,0.4895488110246971,0.0036210012793274,-0.0005724864046109,4.3997619942087747,8.0000000000000000,0.0000000000000000,0.5499702492760968
4.4975711454991050,0.5410817038133469,4.5232524657761743,0.4899043835640730,0.0036782752663140,-0.0005757312190345,4.4997565849887424,8.0000000000000000,0.0000000000000000,0.5624695731235928
4.5975650594329984,0.5414496155544548,4.6232537815116652,0.4902601122419156,0.0037361412946137,-0.0005789811499400,4.5997511757567846,8.0000000000000000,0.0000000000000000,0.5749688969695981
4.6975589309262746,0.5418288899134980,4.7232565285819010,0.4906242940049131,0.0037940652326223,-0.0005822259223461,4.6997457665367524,8.0000000000000000,0.0000000000000000,0.5874682208170940
4.7975528015665905,0.5422083857346528,4.8232593038316285,0.4909886399206451,0.0038525801802993,-0.0005854758107556,4.7997403573040058,8.0000000000000000,0.0000000000000000,0.5999675446630007
4.8975466279886701,0.5425993623633881,4.9232635399331137,0.4913614956710713,0.0039111540608310,-0.0005887205228068,4.8997349480839736,8.0000000000000000,0.0000000000000000,0.6124668685104967
4.9975404534849481,0.5429905722399753,5.0232678060038758,0.4917345236908254,0.0039703179158150,-0.0005919703516896,4.9997295388504126,8.0000000000000000,0.0000000000000000,0.6249661923563016
5.0975342329436293,0.5433933809064365,5.1232735623663386,0.4921161182020578,0.0040295417269651,-0.0005952150501511,5.0997241296303804,8.0000000000000000,0.0000000000000000,0.6374655162037975
5.1975280113997400,0.5437964348111238,5.2232793505368180,0.4924978932009473,0.0040893544865384,-0.0005984648694699,5.1997187203959800,8.0000000000000000,0.0000000000000000,0.6499648400494975
5.2975217419567571,0.5442112052824527,5.3232866583755545,0.4928882912260974,0.0041492282263942,-0.0006017097448618,5.2997133111759478,8.0000000000000000,0.0000000000000000,0.6624641638969935
5.3975154714303839,0.5446262331871758,5.4232939999097400,0.4932788780594862,0.0042096899259407,-0.0006049597289544,5.3997079019406815,8.0000000000000000,0.0000000000000000,0.6749634877425852
5.4975091511008678,0.5450530952372288,5.5233028904149055,0.4936781443578795,0.0042702136274553,-0.0006082042119279,5.4997024927206484,8.0000000000000000,0.0000000000000000,0.6874628115900810
5.5975028296029761,0.5454802271201509,5.6233118165511584,0.4940776078877994,0.0043313241884957,-0.0006114538070906,5.5996970834844912,8.0000000000000000,0.0000000000000000,0.6999621354355614
5.6974964563550490,0.5459193105067145,5.7233223208682862,0.4944858072448892,0.0043924977738872,-0.0006146980906108,5.6996916742644590,8.0000000000000000,0.0000000000000000,0.7124614592830574
5.7974900818494666,0.5463586763300671,5.8233328627992478,0.4948942123597171,0.0044542571565329,-0.0006179473477278,5.7996862650273826,8.0000000000000000,0.0000000000000000,0.7249607831284228
5.8974836536037047,0.5468101108025621,5.9233450119860072,0.4953114095938690,0.0045160805581959,-0.0006211855925406,5.8996808558073486,8.0000000000000000,0.0000000000000000,0.7374601069759186
5.9974772240066194,0.5472618405146668,6.0233572007935994,0.4957288212299336,0.0045784875547707,-0.0006244260517445,5.9996754465693263,8.0000000000000000,0.0000000000000000,0.7499594308211658
6.0974707386366438,0.5477257555805919,6.1233710248623394,0.4961550818248852,0.0046409590132177,-0.0006275459740490,6.0996700373492940,8.0000000000000000,0.0000000000000000,0.7624587546686618
6.1974642518176859,0.5481899787774915,6.2233848902254056,0.4965815658984900,0.0047039899605001,-0.0006305936691606,6.1996646281103134,8.0000000000000000,0.0000000000000000,0.7749580785137892
6.2974577071711693,0.5486664992115944,6.3234004036088676,0.4970169688093272,0.0047670709249981,-0.0006306563268114,6.2996592188902811,8.0000000000000000,0.0000000000000000,0.7874574023612851
6.3974511609885250,0.5491433377792744,6.4234159506614361,0.4974526129397583,0.0048301144031324,-0.0006317066410574,6.3996538096506983,8.0000000000000000,0.0000000000000000,0.7999567262063373
6.4974445554641536,0.5496324660799871,6.5234327983762297,0.4978975755597257,0.0048934054191168,-0.0006697213999935,6.4996484004306661,8.0000000000000000,0.0000000000000000,0.8124560500538333
6.5974379481154708,0.5501219620183539,6.6234497435436310,0.4983426603782199,0.0049640514377733,-0.0007166527968703,6.5996429911853376,8.0000000000000000,0.0000000000000000,0.8249553738981672
6.6974312724830583,0.5506252185845588,6.7234703363490329,0.4987923190710956,0.0050367282254073,-0.0010850146190137,6.6996375819653045,8.0000000000000000,0.0000000000000000,0.8374546977456631
6.7974245928447017,0.5511292489144105,6.8234918606884465,0.4992408614200300,0.0051810426232926,-0.0014358226381497,6.7996321726365982,8.0000000000000000,0.0000000000000000,0.8499540215795748
6.8974177677929047,0.5516613664120340,6.9235471991675661,0.4996488811368969,0.0053238772195201,-0.0011470975636614,6.8996267634165660,8.0000000000000000,0.0000000000000000,0.8624533454270707
6.9974109401569873,0.5521939617323895,7.0236029429939961,0.5000566169072201,0.0054104497261724,-0.0008617001636788,6.9996213541563073,8.0000000000000000,0.0000000000000000,0.8749526692695384
7.0974040214728422,0.5527433925415536,7.1236729687280498,0.5004543481747511,0.0054962079299696,-0.0007062397443771,7.0996159449362750,8.0000000000000000,0.0000000000000000,0.8874519931170344
7.1973971010405426,0.5532931383238302,7.2237430849780129,0.5008522295559598,0.0055516900346235,-0.0005539159915696,7.1996105356992635,8.0000000000000000,0.0000000000000000,0.8999513169624079
7.2973901207736320,0.5538536647827924,7.3238162993424387,0.5012552489218427,0.0056069851357672,-0.0005143683820688,7.2996051264792312,8.0000000000000000,0.0000000000000000,0.9124506408099039
7.3973831389375269,0.5544144688166057,7.4238895491341728,0.5016584714640764,0.0056545581463672,-0.0004753280388663,7.3995997172463790,8.0000000000000000,0.0000000000000000,0.9249499646557974
7.4973761048861460,0.5549845092109912,7.5239639777769325,0.5020684547413962,0.0057020456012264,-0.0004547909546862,7.4995943080263459,8.0000000000000000,0.0000000000000000,0.9374492885032932
7.5973690693385869,0.5555548100701446,7.6240384379721418,0.5024786279148474,0.0057455114171707,-0.0004342122200026,7.5995888987953322,8.0000000000000000,0.0000000000000000,0.9499486123494165
7.6973619853548367,0.5561335430140720,7.7241139196218906,0.5028949486386646,0.0057888833477233,-0.0004133739596437,7.6995834895752999,8.0000000000000000,0.0000000000000000,0.9624479361969125
7.7973548999627553,0.5567125176468997,7.8241894299656760,0.5033114459913995,0.0058281817370343,-0.0003925022456045,7.7995780803460608,8.0000000000000000,0.0000000000000000,0.9749472600432576
7.8973477701836092,0.5572991097101150,7.9242658446738323,0.5037335102463945,0.0058673795505786,-0.0003716452673659,7.8995726711260286,8.0000000000000000,0.0000000000000000,0.9874465838907536
7.9973406390968451,0.5578859233484107,8.0243422850439750,0.5041557370187210,0.0059025067698826,-0.0003507553393605,7.9995672618984583,8.0000000000000000,0.0000000000000000,0.9999459077373073
8.0973334678602367,0.5584795403531345,8.1244195133542938,0.5045829538149954,0.0059375268238224,-0.0003298965963043,8.0995618526784270,8.0000000000000000,0.0000000000000000,1.0124452315848034
8.1973262954292618,0.5590733575013205,8.2244967641051403,0.5050103180928478,0.0059684825201749,-0.0003090049613310,8.1995564434523995,8.0000000000000000,0.0000000000000000,1.0249445554315499
8.2973190872493596,0.5596731652001917,8.3245746865297559,0.5054420966836078,0.0059993244731351,-0.0002881463253112,8.2995510342323673,8.0000000000000000,0.0000000000000000,1.0374438792790459
8.3973118780005933,0.5602731502954211,8.4246526279877862,0.5058740067891400,0.0060261086679421,-0.0002672547812369,8.3995456250077414,8.0000000000000000,0.0000000000000000,1.0499432031259677
8.4973046375464900,0.5608783144462599,8.5247311251229565,0.5063097564454156,0.0060527725381014,-0.0002463957690394,8.4995402157877074,8.0000000000000000,0.0000000000000000,1.0624425269734634
8.5972973961609362,0.5614836319302202,8.6248096376976857,0.5067456207193710,0.0060753851561313,-0.0002255038723083,8.5995348065643249,8.0000000000000000,0.0000000000000000,1.0749418508205406
8.6972901282358848,0.5620933182765933,8.7248885901858664,0.5071847507513541,0.0060978708729622,-0.0002046451870386,8.6995293973442944,8.0000000000000000,0.0000000000000000,1.0874411746680368
8.7972828595282930,0.5627031325776573,8.8249675543343091,0.5076239775727572,0.0061163119795968,-0.0001837535829416,8.7995239881219831,8.0000000000000000,0.0000000000000000,1.0999404985152479
8.8972755690486505,0.5633165068768845,8.9250468428984853,0.5080658973017460,0.0061346196016230,-0.0001628942364833,8.8995185789019526,8.0000000000000000,0.0000000000000000,1.1124398223627441
8.9972682779464144,0.5639299824358041,9.0251261391562707,0.5085078950617141,0.0061488890646317,-0.0001420020108166,8.9995131696805259,8.0000000000000000,0.0000000000000000,1.1249391462100657
9.0972609699210061,0.5645462104193204,9.1252056445405181,0.5089520138471567,0.0061630184675459,-0.0001211431384285,9.0995077604604937,8.0000000000000000,0.0000000000000000,1.1374384700575617
9.1972536614434386,0.5651625116525438,9.2252851534655544,0.5093961909740343,0.0061731163817376,-0.0001002513575312,9.1995023512397474,8.0000000000000000,0.0000000000000000,1.1499377939049684
9.2972463409524035,0.5657807590711811,9.3253647564665556,0.5098419181856069,0.0061830676544887,-0.0000793921383998,9.2994969420197151,8.0000000000000000,0.0000000000000000,1.1624371177524644
9.3972390201895308,0.5663990504133781,9.4254443586679955,0.5102876831185356,0.0061889939505184,-0.0000585000212645,9.3994915327994306,8.0000000000000000,0.0000000000000000,1.1749364415999288
9.4972316923636395,0.5670184830044110,9.5255239400947982,0.5107344281508470,0.0061947670258626,-0.0000376407543289,9.4994861235794001,8.0000000000000000,0.0000000000000000,1.1874357654474250
9.5972243644554460,0.5676379288771105,9.6256035161939835,0.5111811893543218,0.0061965216941700,-0.0000167485954425,9.5994807143593448,8.0000000000000000,0.0000000000000000,1.1999350892949181
9.6972170344551394,0.5682577123760852,9.7256829568626166,0.5116283616364576,0.0061981165637575,0.0000041105595709,9.6994753051393126,8.0000000000000000,0.0000000000000000,1.2124344131424141
9.7972097045705446,0.5688774771993248,9.8257623874879396,0.5120755276081319,0.0061956996267256,0.0000250026260829,9.7994698959192359,8.0000000000000000,0.0000000000000000,1.2249337369899045
9.8972023775650246,0.5694967773463182,9.9258415682227810,0.5125225365674282,0.0061931163090303,0.0000458621715996,9.8994644866992036,8.0000000000000000,0.0000000000000000,1.2374330608374005
9.9971950508809098,0.5701160255438795,10.0259207340093983,0.5129695158053487,0.0061865276885629,0.0000667546023477,9.9994590774788428,8.0000000000000000,0.0000000000000000,1.2499323846848553
10.0971877320273755,0.5707340080632755,10.1259995356025847,0.5134157709218534,0.0061797661107414,0.0000876138623631,10.0994536682588105,8.0000000000000000,0.0000000000000000,1.2624317085323513
10.1971804137077413,0.5713519040442923,10.2260783171541600,0.5138619719747678,0.0061690058639357,0.0001085060397402,10.1994482590378830,8.0000000000000000,0.0000000000000000,1.2749310323797354
10.2971731081303428,0.5719677346716895,10.3261566203859498,0.5143068827281236,0.0061580660766596,0.0001293658143855,10.2994428498178525,8.0000000000000000,0.0000000000000000,1.2874303562272316
