# x_m,y_m,w_tr_right_m,w_tr_left_m,psi,kappa,s,velocity,acceleration,time
0.0553203497303522,-0.4179695751999205,0.5618717626177635,1.3062824066091769,0.1597098415632363,0.0006264418289881,0.0000000000000000,8.0000000000000000,0.0000000000000000,0.0000000000000000
0.1540401744697511,-0.4020676121296041,0.5612045528420978,1.2781837163001142,0.1596472021532980,0.0267285377435835,0.0999923808400787,8.0000000000000000,0.0000000000000000,0.0124990476050098
0.2527619260537927,-0.3861780270824476,0.5605090307958448,1.2505528034353446,0.1543645430603426,0.0525469958929086,0.1999846962887772,8.0000000000000000,0.0000000000000000,0.0249980870360971
0.3516442471200212,-0.3713199381534294,0.5574541661607654,1.2619031246261792,0.1491386071387670,0.0539896979368622,0.2999770771288558,8.0000000000000000,0.0000000000000000,0.0374971346411070
0.4505267375746200,-0.3564630209104311,0.5544062898617768,1.2732234550946460,0.1435674265409663,0.0556864503504364,0.3999694513804412,8.0000000000000000,0.0000000000000000,0.0499961814225552
0.5495684712377025,-0.3427076140070218,0.5579281978987550,1.2563492947034911,0.1380021660035109,0.0652812316942500,0.4999618322205198,8.0000000000000000,0.0000000000000000,0.0624952290275650
0.6486102049007849,-0.3289522071036124,0.5614501059357333,1.2394751343123362,0.1305121749784046,0.0752295584787228,0.5999542130605984,8.0000000000000000,0.0000000000000000,0.0749942766325748
0.7478467781427071,-0.3166819440583785,0.5558333011829291,1.2518564020770200,0.1229574079784450,0.0830142302520864,0.6999464968828945,8.0000000000000000,0.0000000000000000,0.0874933121103618
0.8470850362955132,-0.3044245240662142,0.5501374677402774,1.2644906615059857,0.1139106019792360,0.0902718010655469,0.7999388777229730,8.0000000000000000,0.0000000000000000,0.0999923597153716
0.9465274206834908,-0.2939517143340117,0.5552321654188627,1.2768379728039856,0.1049044272693205,0.0561286289346468,0.8999312152116686,8.0000000000000000,0.0000000000000000,0.1124914019014586
1.0459703535589888,-0.2834836998524333,0.5603558572718365,1.2891845130718984,0.1026857339315603,0.0229493587780012,0.9999235960517473,8.0000000000000000,0.0000000000000000,0.1249904495064684
1.1454582705273506,-0.2734522520800212,0.5621676418798067,1.2904784827402140,0.1003149052990080,0.0451018482749604,1.0999159735968096,8.0000000000000000,0.0000000000000000,0.1374894966996012
1.2449495037003229,-0.2634558996835270,0.5637869994725061,1.2912492250210479,0.0936660615540521,0.0656120922392783,1.1999081359872372,8.0000000000000000,0.0000000000000000,0.1499885169984047
1.3445620189314154,-0.2547482573273697,0.5584608719248844,1.2734031367912899,0.0871935010021381,0.0720217807685073,1.2999005168273161,8.0000000000000000,0.0000000000000000,0.1624875646034145
1.4441745341625074,-0.2460406149712125,0.5531347443772625,1.2555570485615319,0.0792628028912816,0.0796108735450925,1.3998928976673946,8.0000000000000000,0.0000000000000000,0.1749866122084243
1.5439125346223188,-0.2389140027455221,0.5546165162795923,1.2824581473961647,0.0712725469483122,0.0722265318369712,1.4998851840575791,8.0000000000000000,0.0000000000000000,0.1874856480071974
1.6436514773692155,-0.2317992627082069,0.5561494097027277,1.3096952594565110,0.0648186039566689,0.0645722858420927,1.5998775648976575,8.0000000000000000,0.0000000000000000,0.1999846956122072
1.7434731710959039,-0.2259606147912611,0.5667721058676337,1.3151664586953282,0.0583590788798585,0.0345832978408222,1.6998698663411329,8.0000000000000000,0.0000000000000000,0.2124837332926416
1.8432957035102622,-0.2201349645400733,0.5773392573073258,1.3202347489210216,0.0579024741338865,0.0042407343643832,1.7998622469431806,8.0000000000000000,0.0000000000000000,0.2249827808678976
1.9431227667873088,-0.2143874726046378,0.5693902073586101,1.3006372930250827,0.0575109966296579,0.0021571265520890,1.8998546277832595,8.0000000000000000,0.0000000000000000,0.2374818284729074
2.0429498300643552,-0.2086399806692024,0.5614411574098944,1.2810398371291440,0.0574710816944530,0.0003994621096420,1.9998470086233382,8.0000000000000000,0.0000000000000000,0.2499808760779173
2.1427773518443978,-0.2029004579336230,0.5570094262596711,1.2651305923302409,0.0574311102948610,0.0019271918905935,2.0998393894629657,8.0000000000000000,0.0000000000000000,0.2624799236828707
2.2426048742730478,-0.1971609464714173,0.5525826707720153,1.2492265649412309,0.0570856726835016,0.0034619345815255,2.1998317703030446,8.0000000000000000,0.0000000000000000,0.2749789712878806
2.3424363374185084,-0.1914903934674027,0.5582352730510335,1.2630970729566089,0.0567387761329847,0.0019368399818811,2.2998241510384525,8.0000000000000000,0.0000000000000000,0.2874780188798066
2.4422678178543609,-0.1858201430273124,0.5639320997822779,1.2770982204977415,0.0566983342015153,0.0004914139172685,2.3998165318785314,8.0000000000000000,0.0000000000000000,0.2999770664848164
2.5420997394336231,-0.1801576647903139,0.5695683391344176,1.3010782681639090,0.0566405008378537,0.0098526462020699,2.4998089127182355,8.0000000000000000,0.0000000000000000,0.3124761140897794
2.6419318679306434,-0.1744989619730521,0.5751436485859003,1.3247228661573598,0.0547279551692446,0.0190323726127568,2.5998012864165312,8.0000000000000000,0.0000000000000000,0.3249751608020664
2.7417847186175006,-0.1692183904343296,0.5746084081129219,1.3134457162117521,0.0528343164726086,0.0076596804967141,2.6997936672566101,8.0000000000000000,0.0000000000000000,0.3374742084070763
2.8416375693043574,-0.1639378188956070,0.5740731676399435,1.3021685662661444,0.0531961357905630,-0.0036305709265126,2.7997860480966885,8.0000000000000000,0.0000000000000000,0.3499732560120861
2.9414865724469723,-0.1585849913744328,0.5625156387031777,1.2801018791394665,0.0535603753334744,0.0556353163824425,2.8997784287616439,8.0000000000000000,0.0000000000000000,0.3624723035952055
3.0413355498532022,-0.1532316805299740,0.5508843812185100,1.2579630203479384,0.0420699203125632,0.1150303543240060,2.9997708096017219,8.0000000000000000,0.0000000000000000,0.3749713512002152
3.1412811431987482,-0.1501746873805951,0.5518551723809946,1.2525477883727987,0.0305560627389532,0.0733767005859855,3.0997631434894184,8.0000000000000000,0.0000000000000000,0.3874703929361773
3.2412269112946182,-0.1471218859137298,0.5528486056696047,1.2471628099166521,0.0273957018035256,0.0315011248666737,3.1997555239844817,8.0000000000000000,0.0000000000000000,0.3999694404980602
3.3411898773707431,-0.1446966767823760,0.5552206820398407,1.2447850261160120,0.0242563178007029,0.0192658547825868,3.2997479048245602,8.0000000000000000,0.0000000000000000,0.4124684881030700
3.4411528434468681,-0.1422714676510221,0.5575927584100766,1.2424072423153720,0.0235428244262654,0.0071359309472126,3.3997402856646386,8.0000000000000000,0.0000000000000000,0.4249675357080798
3.5411191684733381,-0.1399889067687460,0.5599899922865876,1.2403108272313228,0.0228292403509509,0.0280710070570866,3.4997326664917754,8.0000000000000000,0.0000000000000000,0.4374665833114719
3.6410854939268056,-0.1377063640202227,0.5623872293611751,1.2382144479154713,0.0179290507701952,0.0491924702704242,3.5997250473318547,8.0000000000000000,-3.6412360806564212,0.4499656309164818
3.7410693511581594,-0.1364036056175991,0.5628118374761101,1.2871719951174445,0.0129914977129024,0.0656624669211283,3.6997173914703705,7.9543578331293876,-3.3729370142092421,0.4625004311490403
3.8410533423902908,-0.1351083360084096,0.5632213681805286,1.3365197631994354,0.0047975603815573,0.0819055332343317,3.7997097723104498,7.9118438137085354,-3.3361171162710415,0.4751048821784407
3.9410451111502640,-0.1354442024734497,0.5636688147070963,1.3362910912212207,-0.0033883568994704,0.0470854295833069,3.8997021051466740,7.8695679847356566,-5.5633097314074904,0.4877770479026862
4.0410369079725994,-0.1357859542958698,0.5641163980390277,1.3358835408085297,-0.0046188057719860,0.0121674610559418,3.9996944859867525,7.7985590396936795,-7.7590192181739743,0.5005408429222408
4.1410275949862845,-0.1363678892925469,0.5635445339715101,1.3364554660284902,-0.0058216636936257,0.0056659343541412,4.0996868663855066,7.6984308461671729,-8.1638689547399554,0.5134455916683163
4.2410182803020842,-0.1369501917432800,0.5629711102606787,1.3370288897393214,-0.0057519063009939,-0.0007069941680255,4.1996792472255855,7.5916525280018252,-8.4592510791217048,0.5265249684634756
4.3410090479719816,-0.1375181765576166,0.5624037278944068,1.3375962721055932,-0.0056802756334242,-0.0004005848700124,4.2996716280651510,7.4794028367827883,-8.4775892676277262,0.5397944281554903
4.4409998156831119,-0.1380861542033434,0.5618363485529387,1.3381636514470614,-0.0056717954312320,-0.0000847217531380,4.3996640089052290,7.3651936923319017,-8.4954041407970173,0.5532663174916488
4.5409905929723617,-0.1386524431337466,0.5612704637784215,1.3387295362215785,-0.0056633325738138,-0.0000466182011326,4.4996563897452759,7.2489396985415908,-8.4975503286766099,0.5669506569137170
4.6409813702825975,-0.1392187283641716,0.5607045822785031,1.3392954177214971,-0.0056624725013885,-0.0000085193714809,4.5996487705853548,7.1307605608200531,-8.4995668088316521,0.5808580929571047
4.7409721485458292,-0.1397848452959535,0.5601388053624733,1.3398611946375267,-0.0056616288293385,-0.0000048771034493,4.6996411514254328,7.0105607716571399,-8.4997603001301307,0.5949999653450030
4.8409629268114394,-0.1403509618075295,0.5595730287075672,1.3404269712924328,-0.0056614971550175,-0.0000013080506011,4.7996335322655099,6.8882610138653995,-8.4999379354261464,0.6093885779026851
4.9409537052237553,-0.1409170524068758,0.5590072041537468,1.3409927958462533,-0.0056613672391508,-0.0000008501038321,4.8996259131055897,6.7637476100772442,-8.4999611092067848,0.6240373206034061
5.0409444836364585,-0.1414831429376746,0.5584413794732160,1.3415586205267842,-0.0056613271472052,-0.0000003997864398,4.9996182939456686,6.6368982993647201,-8.4979748894022666,0.6389608372033970
5.1409352620941640,-0.1420492255193711,0.5578747232656143,1.3421252767343859,-0.0056612872879549,0.0000478196136573,5.0996106747857466,6.5076073600893629,-8.4960902801381426,0.6541751607284753
5.2409260405519937,-0.1426153080790549,0.5573080647553462,1.3426919352446540,-0.0056708903412461,0.0000961803899065,5.1996030556258246,6.3757246618092545,-8.4755605677413079,0.6696979122449486
5.3409168081189611,-0.1431833110941949,0.5567272215099992,1.3432727784900009,-0.0056805219003087,0.0006273779049532,5.2995954364658493,6.2413846222579625,-8.4566594510395401,0.6855481959492030
5.4409075756537257,-0.1437513197879505,0.5561463363216557,1.3438536636783442,-0.0057963563620516,0.0011630775637055,5.3995878173059291,6.1043983305508300,-8.3247951799900015,0.7017468252661603
5.5408982089306269,-0.1443424875410164,0.5555042156288781,1.3423737149732953,-0.0059131196896807,0.0049216431364480,5.4995801981278101,5.9664769167598664,-8.2043905762270359,0.7183143696692321
5.6408888410640197,-0.1449338467283929,0.5548615582242068,1.3408725186562005,-0.0067806099915331,0.0087051242141130,5.5995725789381696,5.8273573517159809,-8.1450844021078375,0.7352710910431508
5.7408782982012996,-0.1456984953140713,0.5536064062631610,1.3026644485664016,-0.0076540118807775,0.0109781741445908,5.6995649597782494,5.6858773238241751,-8.0950132582776853,0.7526410802178721
5.8408677430180438,-0.1464645175108575,0.5523554679149685,1.2646134255860551,-0.0089760775116887,0.0131873168254958,5.7995573388116872,5.5416894241353107,-8.0945017906769419,0.7704530213584777
5.9408548287920251,-0.1474935483625531,0.5519113202534585,1.2566325940755316,-0.0102912742695003,0.0072721945998934,5.8995497196517652,5.3936578184053374,-8.2881884920150366,0.7887409419196261
6.0408419145660073,-0.1485225792142487,0.5514671725919483,1.2486517625650080,-0.0104304056156401,0.0014013062755619,5.9995421004918441,5.2377507827033130,-4.2320841630112129,0.8075516911988235
6.1408287100730803,-0.1495794327008532,0.5507357954694442,1.2505252972327843,-0.0105715141709823,0.1605223054211822,6.0995344812769092,5.1563243613473979,0.0000000000000000,0.8267919563305024
6.2408155014551419,-0.1506366815776400,0.5500003365010139,1.2525388732608735,-0.0425324206008137,0.3196969312878281,6.1995268621169881,5.1563243613473979,0.0000000000000000,0.8461841384029952
6.3405304902061035,-0.1580783582977758,0.5534029883799145,1.2701148086179979,-0.0745059989032011,0.2083402071479192,6.2995191494896217,5.1563243613473979,2.9607170496642934,0.8655763023487298
6.4402453545398917,-0.1655229574785042,0.5568075344717621,1.2876978676176758,-0.0841972678026583,0.0975292466560197,6.3995115303297014,5.2134229842785773,5.8491766090787660,0.8848617058416619
6.5397972137512275,-0.1748958314765226,0.5606481282179141,1.3000467758148575,-0.0940103363093436,0.0528664667950812,6.4995036472160654,5.3244269471345111,7.0012609198579447,0.9038394133507222
6.6393467752533812,-0.1842958863059394,0.5644948684623075,1.3123219037763587,-0.0947697416112443,0.0069316360870291,6.5994960280561434,5.4543256055987808,8.2937861290179864,0.9223930224721638
6.7388845467067853,-0.1938199750248265,0.5574395746594866,1.2871650744690750,-0.0953965578997684,0.0211338858173842,6.6994884088250570,5.6043107206103322,7.8362206025460797,0.9404770570347128
6.8384222434571988,-0.2033448207868735,0.5503805027190768,1.2620154001937289,-0.0989961966791761,0.0359801098108787,6.7994807873404621,5.7424231232457883,7.3135406476563452,0.9581019312745450
6.9378888695261969,-0.2135852565450625,0.5502368077842325,1.2829976038432267,-0.1025920315018809,0.0642449428047493,6.8994731681805419,5.8683916033141159,6.2875313741584939,0.9753259389251615
7.0373554955951931,-0.2238256923032513,0.5500931128493882,1.3039798074927242,-0.1118442062551392,0.0926191810987053,6.9994655490206199,5.9745652957571069,5.1939184606003916,0.9922123266224636
7.1366155779038758,-0.2359048313375360,0.5555809881441064,1.2827391424454035,-0.1211144532642676,0.0548220826521125,7.0994578964264887,6.0608691349909076,6.4861582328859999,1.0088286520208074
7.2358752568171898,-0.2479875614964512,0.5610798623154909,1.2614160129864953,-0.1228077855561989,0.0168742483947400,7.1994502772665676,6.1669496089970552,7.8582509457772627,1.0251835527489921
7.3350938931620089,-0.2604027951284532,0.5636727159626184,1.2891774355830454,-0.1244890457741181,0.0137720558814405,7.2994426560974697,6.2930753921231419,7.9545880543844811,1.0412336616086313
7.4343123825838049,-0.2728192190469736,0.5662551667197555,1.3171145696692421,-0.1255619868418241,0.0107163975646515,7.3994350369375486,6.4182236083877413,8.0585530665007230,1.0569664959690002
7.5335041501886932,-0.2854473355973325,0.5599380816431101,1.2872381897120158,-0.1266321619797666,0.0066454105187849,7.4994274170881958,6.5425669343649187,8.2155419926763038,1.0723964776234078
7.6326958368697246,-0.2980760932337612,0.5535940453759549,1.2571867283730038,-0.1268909676761085,0.0027138836496091,7.5994197979282756,6.6669457248521145,8.3793728509423389,1.0875359280209680
7.7318810553609048,-0.3107555509597830,0.5591377985091128,1.2809787916681246,-0.1271748973545161,0.0248257218792191,7.6994121787148595,6.7914587667048565,7.3549405842414277,1.1023953983020571
7.8310655294877742,-0.3234406302617663,0.5646720800042863,1.3047401674090868,-0.1318557331175454,0.0466701380192372,7.7994045341462686,6.8988975819332889,6.2787446822306237,1.1170031050534386
7.9301277025547572,-0.3370480581346054,0.5602989049330822,1.2857081451613854,-0.1365082125980472,0.0389788863014008,7.8993969149863474,6.9893090577632515,6.5958642103975542,1.1314027152312238
8.0291898756217392,-0.3506554860074444,0.5559257298618780,1.2666761229136840,-0.1396509164050890,0.0314565080821565,7.9993892958264254,7.0830440798517174,6.9218422950872807,1.1456138965258149
8.1281645608653310,-0.3648852866547125,0.5606719080536525,1.2799347220296609,-0.1427990347631023,0.0347978697425460,8.0993816732635526,7.1800958469775145,6.7060384050782735,1.1596349855637260
8.2271390953785151,-0.3791161595712196,0.5654337977327948,1.2932489537848197,-0.1466099599741137,0.0382945097484610,8.1993740541036306,7.2728867627676772,6.4744164308137355,1.1734719053940532
8.3260024212590125,-0.3940999056938128,0.5603722565260549,1.2861158185618831,-0.1504573519482584,0.0220367397440557,8.2993664030710370,7.3613630584465666,7.3058364318160445,1.1871374297890864
8.4248645232669102,-0.4090919373322201,0.5552026065550507,1.2787576560951917,-0.1510169714176666,0.0053954471894072,8.3993587839111132,7.4599411549926256,8.1997394682026901,1.2006304907775263
8.5237110481744800,-0.4241863305176184,0.5579315296077972,1.2732630706830657,-0.1515363591676691,0.0250957627875514,8.4993511645805331,7.5690517884700652,-4.1308412893040263,1.2139370883713345
8.6225575234912366,-0.4392810495783049,0.5606855983313347,1.2677744181014605,-0.1560357415536340,0.0450279816635079,8.5993435454206111,7.5142823786281729,-5.9565670875201215,1.2271957458713711
8.7212642104237545,-0.4552643151719378,0.5623856565596946,1.2795463208469957,-0.1605412690339507,0.0441006381341830,8.6993359192509718,7.4345959607661261,-6.0615748848724458,1.2405736557800837
8.8199706551474275,-0.4712491203343426,0.5640838885228190,1.2913481306497077,-0.1648551968517085,0.0433412529500328,8.7993283000910516,7.3526182065358423,-6.1505073863733921,1.2540978233087026
8.9185357354323731,-0.4880834020194449,0.5608653432343975,1.2837472710295192,-0.1692088574131212,0.0304488570342573,8.8993206402548424,7.2684927761927396,-6.8868981889723715,1.2677756266277400
9.0170992552050819,-0.5049270588818018,0.5575936986780811,1.2759351058442872,-0.1709445030276091,0.0171201404985772,8.9993130209969863,7.1731243224886194,-7.6005202458644510,1.2816234360605596
9.1156053451371477,-0.5221033935421155,0.5591721552568435,1.2769952565055360,-0.1726326246289833,0.0180134721865686,9.0993054018370643,7.0663798592959468,-7.5678749575495967,1.2956677987804344
9.2141114350692135,-0.5392797282024290,0.5607506118356060,1.2780554071667851,-0.1745469229698722,0.0192507217642065,9.1992977826771423,6.9584671189891107,-7.3522443433718534,1.3099271174018636
9.3125510339332109,-0.5568330747308795,0.5573780505414281,1.2858270279403665,-0.1764824754765320,0.0244463773888878,9.2992901553805272,6.8520017464150600,-7.1558178776572658,1.3244077803942504
9.4109898945605774,-0.5743906071444480,0.5539505191155841,1.2936731647842221,-0.1794358257270194,0.0295302150941016,9.3992825362206069,6.7467676260550959,-4.1409282641507446,1.3391138729973808
9.5093240908149976,-0.5925250966778249,0.5577506792440454,1.2931765033046536,-0.1823880681556480,0.0975385654436204,9.4992749052476437,6.6851141310959106,-1.1393474635883420,1.3540026831931378
9.6076575679376539,-0.6106635503890840,0.5616004996574994,1.2926225198241024,-0.1989420513396591,0.1655459435308177,9.5992672860877235,6.6680506007979288,-1.0630432941786925,1.3689792648271897
9.7053375393371084,-0.6320431426280254,0.5628217443160389,1.2894463400469625,-0.2154947239144427,0.1159801576467818,9.6992596046772110,6.6520903847820465,-3.3147722426727824,1.3839929675646809
9.8030167665392742,-0.6534264258009832,0.5640399956129598,1.2862671741729848,-0.2221363083064445,0.0664676436178769,9.7992519855172890,6.6020756244028922,-5.5856188717031117,1.3990814130799680
9.9004041715524007,-0.6761016008221545,0.5655665407967859,1.2839166157690634,-0.2287872377857536,0.0381024186679960,9.8992443363118952,6.5169290487994589,-6.8723644130826704,1.4143253059339520
9.9977903272392314,-0.6987822688082902,0.5670409994573549,1.2816062270438779,-0.2297562102390884,0.0095496120760012,9.9992367161203433,6.4106158894396543,-7.0404592312208454,1.4297949686249205
10.0951336354139478,-0.7216461394270025,0.5593971573829725,1.2857012266498404,-0.2306970146710590,0.0367753564077317,10.0992290969604195,6.2998421821869179,-6.0088515873417103,1.4455288438757723
10.1924769435886677,-0.7445100100457153,0.5517533153085900,1.2897962262558031,-0.2371107211259915,0.0647281316120312,10.1992214778004993,6.2037353882798421,-3.0087422511013124,1.4615230471790350
